Time(s),Vibration
0.0,0.0
0.0002,0.2126711810665665
0.0004,0.4196475881346543
0.0006000000000000001,0.6154713396758191
0.0008,0.7951453614326329
0.001,0.9543321312392458
0.0012000000000000001,1.0895165833929497
0.0014,1.1981246657542637
0.0016,1.2785917136458236
0.0018000000000000002,1.3303778167609832
0.002,1.3539305216421942
0.0022,1.3505983364842309
0.0024000000000000002,1.322501393669614
0.0026000000000000003,1.2723681002438922
0.0028,1.2033485154103598
0.003,1.118816420725205
0.0032,1.0221725196506672
0.0034000000000000002,0.9166608926594155
0.0036000000000000003,0.8052097654627878
0.0038,0.6903058920216407
0.004,0.5739095247211845
0.004200000000000001,0.45741419123182625
0.0044,0.34165249730434344
0.0046,0.22694611849396817
0.0048000000000000004,0.11319522620062442
0.005,1.1021821192326178e-16
0.005200000000000001,-0.113195226200625
0.0054,-0.2269461184939684
0.0056,-0.34165249730434355
0.0058000000000000005,-0.4574141912318269
0.006,-0.5739095247211846
0.006200000000000001,-0.6903058920216413
0.0064,-0.8052097654627886
0.0066,-0.916660892659416
0.0068000000000000005,-1.022172519650668
0.007,-1.118816420725205
0.007200000000000001,-1.2033485154103603
0.0074,-1.2723681002438922
0.0076,-1.3225013936696142
0.0078000000000000005,-1.3505983364842309
0.008,-1.3539305216421944
0.0082,-1.3303778167609828
0.008400000000000001,-1.2785917136458231
0.0086,-1.1981246657542637
0.0088,-1.089516583392949
0.009000000000000001,-0.954332131239245
0.0092,-0.7951453614326329
0.0094,-0.6154713396758189
0.009600000000000001,-0.4196475881346538
0.0098,-0.21267118106656716
0.01,-4.1637991171010006e-16
0.0102,0.21267118106656788
0.010400000000000001,0.41964758813465586
0.0106,0.6154713396758195
0.0108,0.7951453614326334
0.011000000000000001,0.9543321312392464
0.0112,1.0895165833929494
0.0114,1.1981246657542637
0.011600000000000001,1.2785917136458236
0.0118,1.3303778167609832
0.012,1.3539305216421944
0.0122,1.3505983364842309
0.012400000000000001,1.3225013936696135
0.0126,1.2723681002438922
0.0128,1.2033485154103594
0.013000000000000001,1.118816420725204
0.0132,1.022172519650667
0.0134,0.9166608926594157
0.013600000000000001,0.8052097654627873
0.013800000000000002,0.6903058920216405
0.014,0.5739095247211846
0.0142,0.45741419123182625
0.014400000000000001,0.341652497304342
0.0146,0.2269461184939688
0.0148,0.11319522620062425
0.015000000000000001,-1.2680665196904399e-15
0.0152,-0.11319522620062517
0.0154,-0.22694611849396812
0.015600000000000001,-0.34165249730434455
0.0158,-0.45741419123182714
0.016,-0.573909524721184
0.0162,-0.6903058920216398
0.0164,-0.8052097654627897
0.0166,-0.9166608926594166
0.016800000000000002,-1.0221725196506692
0.017,-1.118816420725206
0.0172,-1.2033485154103603
0.017400000000000002,-1.272368100243893
0.0176,-1.3225013936696142
0.0178,-1.3505983364842309
0.018000000000000002,-1.3539305216421942
0.0182,-1.330377816760983
0.0184,-1.2785917136458236
0.018600000000000002,-1.198124665754263
0.0188,-1.0895165833929494
0.019,-0.9543321312392463
0.019200000000000002,-0.795145361432632
0.0194,-0.6154713396758192
0.0196,-0.41964758813465564
0.0198,-0.21267118106656607
0.02,-8.327598234202001e-16
0.020200000000000003,0.2126711810665704
0.0204,0.4196475881346569
0.0206,0.6154713396758205
0.020800000000000003,0.7951453614326356
0.021,0.9543321312392473
0.0212,1.08951658339295
0.021400000000000002,1.198124665754265
0.0216,1.2785917136458238
0.0218,1.3303778167609832
0.022000000000000002,1.3539305216421944
0.0222,1.3505983364842309
0.0224,1.322501393669614
0.022600000000000002,1.2723681002438918
0.0228,1.2033485154103594
0.023,1.1188164207252056
0.023200000000000002,1.0221725196506672
0.0234,0.9166608926594157
0.0236,0.805209765462789
0.0238,0.6903058920216393
0.024,0.5739095247211832
0.024200000000000003,0.4574141912318248
0.0244,0.3416524973043422
0.0246,0.2269461184939674
0.024800000000000003,0.11319522620062286
0.025,-1.0476300958439163e-15
0.0252,-0.11319522620062498
0.025400000000000002,-0.22694611849396953
0.0256,-0.3416524973043443
0.0258,-0.4574141912318268
0.026000000000000002,-0.573909524721187
0.0262,-0.6903058920216429
0.0264,-0.8052097654627894
0.026600000000000002,-0.9166608926594163
0.0268,-1.0221725196506677
0.027,-1.1188164207252047
0.027200000000000002,-1.203348515410361
0.0274,-1.272368100243893
0.027600000000000003,-1.3225013936696142
0.027800000000000002,-1.3505983364842309
0.028,-1.3539305216421944
0.028200000000000003,-1.3303778167609825
0.0284,-1.2785917136458227
0.0286,-1.1981246657542632
0.028800000000000003,-1.089516583392946
0.029,-0.9543321312392467
0.0292,-0.7951453614326349
0.029400000000000003,-0.6154713396758169
0.0296,-0.4196475881346532
0.0298,-0.21267118106656652
0.030000000000000002,4.790473518830551e-15
0.0302,0.21267118106657001
0.0304,0.4196475881346565
0.030600000000000002,0.6154713396758201
0.0308,0.7951453614326328
0.031,0.9543321312392448
0.031200000000000002,1.0895165833929514
0.031400000000000004,1.1981246657542648
0.0316,1.2785917136458238
0.0318,1.3303778167609832
0.032,1.3539305216421942
0.0322,1.350598336484231
0.0324,1.3225013936696146
0.032600000000000004,1.2723681002438902
0.0328,1.2033485154103576
0.033,1.1188164207252032
0.0332,1.022172519650666
0.0334,0.9166608926594146
0.033600000000000005,0.8052097654627843
0.033800000000000004,0.6903058920216377
0.034,0.5739095247211818
0.0342,0.4574141912318249
0.0344,0.34165249730434244
0.0346,0.22694611849396767
0.034800000000000005,0.11319522620062147
0.035,-2.425914827457618e-15
0.0352,-0.11319522620062633
0.0354,-0.22694611849396928
0.0356,-0.3416524973043441
0.0358,-0.4574141912318267
0.036000000000000004,-0.5739095247211868
0.0362,-0.6903058920216427
0.0364,-0.8052097654627894
0.0366,-0.9166608926594161
0.0368,-1.0221725196506672
0.037000000000000005,-1.118816420725207
0.037200000000000004,-1.203348515410361
0.0374,-1.2723681002438927
0.0376,-1.3225013936696142
0.0378,-1.3505983364842309
0.038,-1.3539305216421944
0.038200000000000005,-1.3303778167609828
0.038400000000000004,-1.278591713645823
0.0386,-1.1981246657542632
0.0388,-1.0895165833929499
0.039,-0.954332131239247
0.0392,-0.7951453614326351
0.039400000000000004,-0.615471339675812
0.0396,-0.4196475881346536
0.0398,-0.21267118106656693
0.04,-1.6655196468404002e-15
0.0402,0.21267118106656363
0.040400000000000005,0.41964758813466185
0.040600000000000004,0.615471339675825
0.0408,0.7951453614326374
0.041,0.9543321312392486
0.0412,1.0895165833929514
0.0414,1.1981246657542646
0.041600000000000005,1.2785917136458256
0.041800000000000004,1.3303778167609843
0.042,1.3539305216421944
0.0422,1.3505983364842307
0.0424,1.3225013936696135
0.0426,1.272368100243892
0.042800000000000005,1.2033485154103576
0.043000000000000003,1.1188164207252032
0.0432,1.022172519650666
0.0434,0.9166608926594149
0.0436,0.805209765462788
0.0438,0.6903058920216413
0.044000000000000004,0.5739095247211821
0.0442,0.45741419123182525
0.0444,0.34165249730434266
0.0446,0.22694611849396784
0.0448,0.11319522620062489
0.045000000000000005,-2.2054784036110948e-15
0.045200000000000004,-0.11319522620062612
0.0454,-0.22694611849396906
0.0456,-0.3416524973043439
0.0458,-0.4574141912318265
0.046,-0.5739095247211833
0.046200000000000005,-0.6903058920216426
0.046400000000000004,-0.805209765462789
0.0466,-0.9166608926594157
0.0468,-1.0221725196506672
0.047,-1.118816420725204
0.0472,-1.2033485154103585
0.047400000000000005,-1.2723681002438942
0.0476,-1.322501393669615
0.0478,-1.350598336484231
0.048,-1.353930521642194
0.0482,-1.3303778167609825
0.048400000000000006,-1.2785917136458211
0.048600000000000004,-1.198124665754261
0.0488,-1.0895165833929465
0.049,-0.9543321312392431
0.0492,-0.7951453614326307
0.0494,-0.6154713396758177
0.049600000000000005,-0.41964758813464825
0.049800000000000004,-0.21267118106656138
0.05,3.9577136954103515e-15
0.0502,0.21267118106656918
0.0504,0.41964758813465575
0.0506,0.6154713396758194
0.050800000000000005,0.7951453614326369
0.051000000000000004,0.9543321312392485
0.0512,1.089516583392951
0.0514,1.1981246657542644
0.0516,1.2785917136458236
0.051800000000000006,1.3303778167609852
0.052000000000000005,1.3539305216421949
0.0522,1.3505983364842302
0.0524,1.3225013936696124
0.0526,1.2723681002438902
0.0528,1.203348515410358
0.053000000000000005,1.1188164207252034
0.053200000000000004,1.0221725196506664
0.0534,0.916660892659415
0.0536,0.805209765462788
0.0538,0.6903058920216414
0.054,0.5739095247211856
0.054200000000000005,0.45741419123182214
0.054400000000000004,0.34165249730433966
0.0546,0.22694611849396484
0.0548,0.11319522620062193
0.055,-1.9850419797645712e-15
0.055200000000000006,-0.11319522620062591
0.055400000000000005,-0.2269461184939689
0.055600000000000004,-0.34165249730434366
0.0558,-0.4574141912318262
0.056,-0.5739095247211831
0.0562,-0.6903058920216391
0.056400000000000006,-0.8052097654627921
0.056600000000000004,-0.9166608926594189
0.0568,-1.02217251965067
0.057,-1.1188164207252065
0.0572,-1.2033485154103605
0.0574,-1.2723681002438925
0.057600000000000005,-1.3225013936696162
0.057800000000000004,-1.3505983364842309
0.058,-1.3539305216421944
0.0582,-1.3303778167609839
0.0584,-1.2785917136458251
0.058600000000000006,-1.198124665754261
0.058800000000000005,-1.089516583392947
0.059000000000000004,-0.9543321312392432
0.0592,-0.795145361432631
0.0594,-0.615471339675818
0.0596,-0.4196475881346543
0.059800000000000006,-0.21267118106655586
0.060000000000000005,9.580947037661102e-15
0.060200000000000004,0.21267118106657473
0.0604,0.4196475881346611
0.0606,0.6154713396758243
0.0608,0.7951453614326366
0.061000000000000006,0.9543321312392482
0.061200000000000004,1.089516583392951
0.0614,1.1981246657542641
0.0616,1.2785917136458236
0.0618,1.330377816760983
0.062,1.3539305216421942
0.062200000000000005,1.3505983364842302
0.062400000000000004,1.3225013936696126
0.0626,1.2723681002438905
0.06280000000000001,1.203348515410358
0.063,1.1188164207252036
0.0632,1.0221725196506666
0.0634,0.9166608926594152
0.0636,0.8052097654627886
0.06380000000000001,0.6903058920216352
0.064,0.5739095247211857
0.06420000000000001,0.4574141912318223
0.0644,0.3416524973043464
0.0646,0.22694611849396504
0.0648,0.11319522620062855
0.065,-1.7646055559180472e-15
0.06520000000000001,-0.11319522620063208
0.0654,-0.22694611849396867
0.0656,-0.34165249730435
0.0658,-0.45741419123182603
0.066,-0.5739095247211894
0.06620000000000001,-0.6903058920216454
0.0664,-0.8052097654627919
0.0666,-0.9166608926594185
0.0668,-1.02217251965067
0.067,-1.1188164207252065
0.06720000000000001,-1.203348515410365
0.0674,-1.2723681002438925
0.06760000000000001,-1.322501393669616
0.0678,-1.3505983364842309
0.068,-1.3539305216421937
0.0682,-1.330377816760984
0.0684,-1.2785917136458214
0.06860000000000001,-1.1981246657542615
0.0688,-1.089516583392947
0.069,-0.9543321312392435
0.0692,-0.7951453614326314
0.0694,-0.6154713396758185
0.06960000000000001,-0.4196475881346433
0.0698,-0.21267118106656815
0.07,9.164567125951003e-15
0.0702,0.2126711810665624
0.0704,0.4196475881346607
0.07060000000000001,0.615471339675824
0.0708,0.7951453614326364
0.07100000000000001,0.9543321312392479
0.0712,1.0895165833929505
0.0714,1.198124665754264
0.0716,1.2785917136458231
0.0718,1.330377816760983
0.07200000000000001,1.3539305216421946
0.0722,1.350598336484231
0.0724,1.3225013936696126
0.0726,1.272368100243894
0.0728,1.2033485154103583
0.07300000000000001,1.1188164207251985
0.0732,1.0221725196506666
0.0734,0.9166608926594091
0.0736,0.8052097654627886
0.0738,0.6903058920216354
0.07400000000000001,0.5739095247211794
0.0742,0.4574141912318226
0.07440000000000001,0.34165249730434005
0.0746,0.2269461184939653
0.0748,0.11319522620062239
0.075,-1.544169132071524e-15
0.0752,-0.11319522620062547
0.07540000000000001,-0.22694611849397492
0.0756,-0.3416524973043432
0.0758,-0.45741419123183236
0.076,-0.5739095247211826
0.0762,-0.690305892021645
0.07640000000000001,-0.8052097654627917
0.0766,-0.9166608926594183
0.07680000000000001,-1.0221725196506695
0.077,-1.118816420725206
0.0772,-1.2033485154103603
0.07740000000000001,-1.2723681002438956
0.0776,-1.3225013936696137
0.07780000000000001,-1.3505983364842316
0.078,-1.3539305216421944
0.0782,-1.3303778167609819
0.0784,-1.2785917136458251
0.0786,-1.1981246657542612
0.07880000000000001,-1.0895165833929406
0.079,-0.9543321312392439
0.0792,-0.7951453614326317
0.0794,-0.6154713396758188
0.0796,-0.41964758813465514
0.07980000000000001,-0.21267118106655664
0.08,-3.3310392936808004e-15
0.08020000000000001,0.2126711810665739
0.0804,0.41964758813464875
0.0806,0.6154713396758236
0.08080000000000001,0.7951453614326456
0.081,0.9543321312392475
0.08120000000000001,1.0895165833929574
0.0814,1.198124665754264
0.0816,1.2785917136458271
0.0818,1.330377816760983
0.082,1.3539305216421949
0.08220000000000001,1.3505983364842304
0.0824,1.3225013936696126
0.0826,1.2723681002438907
0.0828,1.2033485154103583
0.083,1.118816420725204
0.08320000000000001,1.022172519650661
0.0834,0.9166608926594157
0.08360000000000001,0.8052097654627824
0.0838,0.6903058920216422
0.084,0.5739095247211796
0.08420000000000001,0.4574141912318229
0.0844,0.3416524973043403
0.08460000000000001,0.2269461184939655
0.0848,0.11319522620062256
0.085,-1.323732708225e-15
0.0852,-0.11319522620062525
0.0854,-0.22694611849396817
0.08560000000000001,-0.3416524973043495
0.0858,-0.4574141912318256
0.08600000000000001,-0.573909524721189
0.0862,-0.6903058920216384
0.0864,-0.8052097654627914
0.08660000000000001,-0.9166608926594243
0.0868,-1.0221725196506692
0.08700000000000001,-1.1188164207252111
0.0872,-1.2033485154103603
0.0874,-1.2723681002438956
0.0876,-1.3225013936696137
0.0878,-1.3505983364842316
0.08800000000000001,-1.353930521642194
0.0882,-1.3303778167609819
0.0884,-1.2785917136458218
0.0886,-1.198124665754267
0.0888,-1.0895165833929477
0.08900000000000001,-0.9543321312392358
0.0892,-0.795145361432632
0.08940000000000001,-0.6154713396758085
0.0896,-0.4196475881346556
0.0898,-0.21267118106655708
0.09000000000000001,8.331807302530802e-15
0.0902,0.2126711810665735
0.09040000000000001,0.41964758813465985
0.0906,0.6154713396758232
0.0908,0.7951453614326356
0.091,0.9543321312392474
0.0912,1.08951658339295
0.09140000000000001,1.198124665754269
0.0916,1.2785917136458231
0.0918,1.3303778167609848
0.092,1.353930521642194
0.0922,1.3505983364842304
0.09240000000000001,1.3225013936696128
0.0926,1.2723681002438907
0.09280000000000001,1.2033485154103583
0.093,1.118816420725204
0.0932,1.022172519650667
0.09340000000000001,0.9166608926594094
0.0936,0.805209765462789
0.09380000000000001,0.6903058920216358
0.094,0.5739095247211865
0.0942,0.45741419123182303
0.0944,0.341652497304347
0.0946,0.2269461184939658
0.09480000000000001,0.1131952262006164
0.095,-1.1032962843784769e-15
0.0952,-0.11319522620063145
0.0954,-0.22694611849396795
0.0956,-0.3416524973043492
0.09580000000000001,-0.4574141912318319
0.096,-0.5739095247211887
0.09620000000000001,-0.6903058920216446
0.0964,-0.8052097654627912
0.0966,-0.916660892659418
0.09680000000000001,-1.0221725196506748
0.097,-1.118816420725206
0.09720000000000001,-1.2033485154103643
0.0974,-1.2723681002438922
0.0976,-1.322501393669616
0.0978,-1.3505983364842304
0.098,-1.353930521642194
0.09820000000000001,-1.3303778167609819
0.0984,-1.2785917136458216
0.09860000000000001,-1.1981246657542617
0.0988,-1.0895165833929479
0.099,-0.9543321312392444
0.09920000000000001,-0.7951453614326226
0.0994,-0.6154713396758196
0.09960000000000001,-0.41964758813464453
0.0998,-0.2126711810665694
0.1,7.915427390820703e-15
0.10020000000000001,0.21267118106657307
0.1004,0.41964758813465947
0.10060000000000001,0.6154713396758229
0.1008,0.7951453614326353
0.101,0.954332131239247
0.1012,1.0895165833929499
0.1014,1.1981246657542637
0.10160000000000001,1.2785917136458267
0.1018,1.3303778167609828
0.10200000000000001,1.3539305216421944
0.1022,1.3505983364842313
0.1024,1.3225013936696128
0.10260000000000001,1.2723681002438878
0.1028,1.2033485154103587
0.10300000000000001,1.1188164207251992
0.1032,1.0221725196506672
0.1034,0.91666089265941
0.10360000000000001,0.8052097654627763
0.1038,0.6903058920216361
0.10400000000000001,0.5739095247211735
0.1042,0.45741419123182325
0.1044,0.3416524973043342
0.1046,0.22694611849396595
0.1048,0.11319522620061662
0.10500000000000001,-8.828598605319533e-16
0.1052,-0.11319522620063122
0.10540000000000001,-0.22694611849396779
0.1056,-0.34165249730434905
0.1058,-0.45741419123182503
0.10600000000000001,-0.5739095247211886
0.1062,-0.690305892021638
0.10640000000000001,-0.8052097654627912
0.1066,-0.9166608926594116
0.1068,-1.022172519650669
0.10700000000000001,-1.118816420725211
0.1072,-1.2033485154103598
0.10740000000000001,-1.2723681002438954
0.1076,-1.3225013936696135
0.1078,-1.3505983364842316
0.108,-1.3539305216421944
0.1082,-1.330377816760982
0.10840000000000001,-1.2785917136458183
0.1086,-1.198124665754262
0.10880000000000001,-1.089516583392941
0.109,-0.9543321312392448
0.1092,-0.795145361432623
0.10940000000000001,-0.6154713396757986
0.1096,-0.41964758813464487
0.10980000000000001,-0.21267118106654592
0.11,7.499047479110603e-15
0.1102,0.2126711810665846
0.11040000000000001,0.41964758813465913
0.1106,0.6154713396758331
0.11080000000000001,0.795145361432635
0.111,0.9543321312392551
0.11120000000000001,1.0895165833929497
0.1114,1.1981246657542686
0.1116,1.278591713645823
0.11180000000000001,1.3303778167609848
0.112,1.3539305216421942
0.11220000000000001,1.3505983364842304
0.1124,1.322501393669615
0.1126,1.2723681002438911
0.11280000000000001,1.2033485154103543
0.113,1.1188164207252045
0.11320000000000001,1.0221725196506617
0.1134,0.9166608926594161
0.1136,0.8052097654627832
0.11380000000000001,0.6903058920216297
0.114,0.5739095247211803
0.11420000000000001,0.4574141912318169
0.1144,0.34165249730434094
0.11460000000000001,0.22694611849395974
0.1148,0.11319522620062325
0.115,-7.057308058526331e-15
0.11520000000000001,-0.11319522620063738
0.1154,-0.226946118493974
0.11560000000000001,-0.34165249730434233
0.1158,-0.45741419123183147
0.116,-0.5739095247211817
0.11620000000000001,-0.6903058920216443
0.1164,-0.8052097654627843
0.11660000000000001,-0.9166608926594174
0.1168,-1.022172519650663
0.117,-1.1188164207252056
0.11720000000000001,-1.2033485154103643
0.1174,-1.272368100243892
0.11760000000000001,-1.3225013936696157
0.1178,-1.3505983364842307
0.11800000000000001,-1.353930521642194
0.1182,-1.3303778167609843
0.1184,-1.278591713645822
0.11860000000000001,-1.198124665754257
0.1188,-1.089516583392948
0.11900000000000001,-0.9543321312392368
0.1192,-0.7951453614326329
0.1194,-0.6154713396758096
0.11960000000000001,-0.4196475881346338
0.1198,-0.21267118106655827
0.12000000000000001,1.9161894075322203e-14
0.1202,0.2126711810665723
0.12040000000000001,0.4196475881346701
0.1206,0.6154713396758221
0.1208,0.7951453614326442
0.12100000000000001,0.9543321312392464
0.1212,1.0895165833929563
0.12140000000000001,1.1981246657542632
0.1216,1.2785917136458265
0.1218,1.3303778167609825
0.12200000000000001,1.3539305216421946
0.1222,1.350598336484231
0.12240000000000001,1.322501393669613
0.1226,1.2723681002438945
0.1228,1.2033485154103591
0.12300000000000001,1.1188164207251994
0.1232,1.0221725196506677
0.12340000000000001,0.9166608926594102
0.1236,0.8052097654627897
0.12380000000000001,0.6903058920216365
0.124,0.5739095247211872
0.1242,0.4574141912318237
0.12440000000000001,0.34165249730433467
0.1246,0.2269461184939664
0.12480000000000001,0.11319522620061703
0.125,-4.4198701283890614e-16
