Time(s),Vibration
0.0,0.0
0.0002,0.19044635981472394
0.0004,0.3775314659540803
0.0006000000000000001,0.5579616674849406
0.0008,0.728576966466765
0.001,0.8864140030781457
0.0012000000000000001,1.0287645416006208
0.0014,1.1532281384251954
0.0016,1.2577578218099608
0.0018000000000000002,1.3406977909477684
0.002,1.4008123440914957
0.0022,1.4373054664653904
0.0024000000000000002,1.4498307424039856
0.0026000000000000003,1.4384914962254745
0.0028,1.4038313062491894
0.003,1.346815269643978
0.0032,1.268802616219638
0.0034000000000000002,1.1715114710351617
0.0036000000000000003,1.0569767435615236
0.0038,0.9275022705936665
0.004,0.7856084574953435
0.004200000000000001,0.6339767449675513
0.0044,0.4753922746590904
0.0046,0.3126861359449833
0.0048000000000000004,0.1486785485075889
0.005,-0.013875727571288632
0.005200000000000001,-0.17233855821290683
0.0054,-0.3242351073949876
0.0056,-0.4672950944561537
0.0058000000000000005,-0.5994878871837926
0.006,-0.7190508673235851
0.006200000000000001,-0.8245107007673225
0.0064,-0.9146973439730903
0.0066,-0.9887508153188959
0.0068000000000000005,-1.0461209494366244
0.007,-1.0865605288134177
0.007200000000000001,-1.1101123452791815
0.0074,-1.117090880258676
0.0076,-1.108059403448041
0.0078000000000000005,-1.0838033723214895
0.008,-1.0453010679421526
0.0082,-0.9936924252505875
0.008400000000000001,-0.9302470086022478
0.0086,-0.8563320470226512
0.0088,-0.7733813805298994
0.009000000000000001,-0.6828660818254249
0.0092,-0.5862674102617322
0.0094,-0.48505263142163924
0.009600000000000001,-0.38065410048169457
0.0098,-0.27445186565718127
0.01,-0.16775990443005162
0.0102,-0.061815964891783495
0.010400000000000001,0.042225147867463036
0.0106,0.14329512043976617
0.0108,0.24041289877529787
0.011000000000000001,0.3326831430808962
0.0112,0.41929290042165007
0.0114,0.4995070639620494
0.011600000000000001,0.5726632015469655
0.0118,0.6381663253702274
0.012,0.6954841396524934
0.0122,0.7441432462258071
0.012400000000000001,0.7837267111457065
0.0126,0.813873302053568
0.0128,0.834278599698261
0.013000000000000001,0.8446980719514057
0.0132,0.8449520792749374
0.0134,0.8349326615375251
0.013600000000000001,0.814611841938826
0.013800000000000002,0.7840510790384135
0.014,0.7434114066381088
0.0142,0.6929637272169593
0.014400000000000001,0.6330986708700747
0.0146,0.5643354006691782
0.0148,0.48732873868076565
0.015000000000000001,0.4028740053470393
0.0152,0.3119090084837344
0.0154,0.21551268583031016
0.015600000000000001,0.11489999510064947
0.0158,0.011412755224170956
0.016,-0.0934937313882119
0.0162,-0.1982683071194733
0.0164,-0.30128572292197786
0.0166,-0.4008722727412767
0.016800000000000002,-0.49533488573310136
0.017,-0.5829931222766798
0.0172,-0.66221339044218
0.017400000000000002,-0.7314445866736214
0.0176,-0.7892542722181143
0.0178,-0.8343644289062879
0.018000000000000002,-0.8656857972026107
0.0182,-0.8823497881262286
0.0184,-0.8837369799337296
0.018600000000000002,-0.8695012606563304
0.0188,-0.8395887580333246
0.019,-0.7942508074621671
0.019200000000000002,-0.7340503437534207
0.0194,-0.6598612603404799
0.0196,-0.5728604559909586
0.0198,-0.4745124791943627
0.02,-0.36654687894677307
0.020200000000000003,-0.2509285719529594
0.0204,-0.12982173446991965
0.0206,-0.005547916263434788
0.020800000000000003,0.11946075125136227
0.021,0.24271222601573295
0.0212,0.3617079490579479
0.021400000000000002,0.4739977038127207
0.0216,0.5772346156171718
0.0218,0.6692289326352848
0.022000000000000002,0.7479992325870156
0.0222,0.8118197397244685
0.0224,0.85926251292551
0.022600000000000002,0.8892333769300184
0.0228,0.9010006119746319
0.023,0.894215588790287
0.023200000000000002,0.8689247316657971
0.0234,0.8255724068772168
0.0236,0.7649945614835293
0.0238,0.6884031721245653
0.024,0.5973617986171155
0.024200000000000003,0.4937527663644419
0.0244,0.3797367185387184
0.0246,0.2577054776454352
0.024800000000000003,0.13022933090399336
0.025,-1.1395405038436268e-15
0.0252,-0.13022933090399513
0.025400000000000002,-0.2577054776454376
0.0256,-0.37973671853872004
0.0258,-0.4937527663644433
0.026000000000000002,-0.5973617986171188
0.0262,-0.6884031721245688
0.0264,-0.7649945614835295
0.026600000000000002,-0.8255724068772168
0.0268,-0.8689247316657971
0.027,-0.8942155887902868
0.027200000000000002,-0.9010006119746323
0.0274,-0.8892333769300188
0.027600000000000003,-0.8592625129255097
0.027800000000000002,-0.8118197397244685
0.028,-0.7479992325870157
0.028200000000000003,-0.6692289326352834
0.0284,-0.5772346156171702
0.0286,-0.47399770381271955
0.028800000000000003,-0.36170794905794534
0.029,-0.2427122260157322
0.0292,-0.11946075125136169
0.029400000000000003,0.005547916263436536
0.0296,0.1298217344699219
0.0298,0.25092857195296175
0.030000000000000002,0.3665468789467752
0.0302,0.4745124791943647
0.0304,0.5728604559909594
0.030600000000000002,0.6598612603404801
0.0308,0.7340503437534216
0.031,0.794250807462167
0.031200000000000002,0.8395887580333258
0.031400000000000004,0.8695012606563308
0.0316,0.8837369799337299
0.0318,0.8823497881262289
0.032,0.8656857972026106
0.0322,0.8343644289062895
0.0324,0.7892542722181157
0.032600000000000004,0.7314445866736203
0.0328,0.662213390442179
0.033,0.5829931222766783
0.0332,0.4953348857331001
0.0334,0.4008722727412759
0.033600000000000005,0.30128572292197386
0.033800000000000004,0.1982683071194716
0.034,0.0934937313882099
0.0342,-0.01141275522417301
0.0344,-0.11489999510065191
0.0346,-0.2155126858303114
0.034800000000000005,-0.31190900848373804
0.035,-0.4028740053470431
0.0352,-0.4873287386807683
0.0354,-0.564335400669179
0.0356,-0.6330986708700773
0.0358,-0.6929637272169603
0.036000000000000004,-0.7434114066381107
0.0362,-0.7840510790384145
0.0364,-0.8146118419388275
0.0366,-0.8349326615375258
0.0368,-0.8449520792749383
0.037000000000000005,-0.8446980719514068
0.037200000000000004,-0.8342785996982607
0.0374,-0.8138733020535673
0.0376,-0.7837267111457064
0.0378,-0.7441432462258066
0.038,-0.6954841396524937
0.038200000000000005,-0.6381663253702267
0.038400000000000004,-0.5726632015469649
0.0386,-0.4995070639620483
0.0388,-0.4192929004216502
0.039,-0.332683143080896
0.0392,-0.2404128987752991
0.039400000000000004,-0.14329512043976195
0.0396,-0.04222514786746138
0.0398,0.06181596489178395
0.04,0.16775990443005057
0.0402,0.27445186565717994
0.040400000000000005,0.3806541004816987
0.040600000000000004,0.4850526314216429
0.0408,0.5862674102617352
0.041,0.6828660818254274
0.0412,0.7733813805299009
0.0414,0.8563320470226523
0.041600000000000005,0.9302470086022504
0.041800000000000004,0.9936924252505893
0.042,1.0453010679421537
0.0422,1.0838033723214895
0.0424,1.1080594034480407
0.0426,1.1170908802586756
0.042800000000000005,1.1101123452791808
0.043000000000000003,1.0865605288134161
0.0432,1.046120949436624
0.0434,0.9887508153188946
0.0436,0.91469734397309
0.0438,0.8245107007673228
0.044000000000000004,0.7190508673235824
0.0442,0.5994878871837914
0.0444,0.4672950944561528
0.0446,0.3242351073949868
0.0448,0.1723385582129071
0.045000000000000005,0.013875727571285579
0.045200000000000004,-0.1486785485075906
0.0454,-0.3126861359449845
0.0456,-0.47539227465909073
0.0458,-0.6339767449675515
0.046,-0.7856084574953419
0.046200000000000005,-0.927502270593668
0.046400000000000004,-1.0569767435615252
0.0466,-1.171511471035162
0.0468,-1.2688026162196373
0.047,-1.3468152696439777
0.0472,-1.403831306249188
0.047400000000000005,-1.4384914962254745
0.0476,-1.4498307424039856
0.0478,-1.4373054664653895
0.048,-1.400812344091495
0.0482,-1.340697790947768
0.048400000000000006,-1.2577578218099577
0.048600000000000004,-1.1532281384251928
0.0488,-1.0287645416006184
0.049,-0.8864140030781446
0.0492,-0.7285769664667637
0.0494,-0.5579616674849405
0.049600000000000005,-0.37753146595407666
0.049800000000000004,-0.19044635981471997
0.05,1.691250544096524e-15
0.0502,0.19044635981472577
0.0504,0.37753146595408094
0.0506,0.5579616674849391
0.050800000000000005,0.7285769664667688
0.051000000000000004,0.8864140030781474
0.0512,1.0287645416006217
0.0514,1.1532281384251954
0.0516,1.2577578218099603
0.051800000000000006,1.340697790947772
0.052000000000000005,1.4008123440914977
0.0522,1.4373054664653915
0.0524,1.4498307424039856
0.0526,1.4384914962254745
0.0528,1.4038313062491896
0.053000000000000005,1.3468152696439766
0.053200000000000004,1.2688026162196375
0.0534,1.1715114710351622
0.0536,1.0569767435615238
0.0538,0.9275022705936677
0.054,0.7856084574953448
0.054200000000000005,0.6339767449675464
0.054400000000000004,0.47539227465908673
0.0546,0.3126861359449792
0.0548,0.14867854850758677
0.055,-0.01387572757129038
0.055200000000000006,-0.17233855821290875
0.055400000000000005,-0.32423510739498834
0.055600000000000004,-0.4672950944561544
0.0558,-0.5994878871837916
0.056,-0.719050867323584
0.0562,-0.8245107007673208
0.056400000000000006,-0.9146973439730927
0.056600000000000004,-0.9887508153188981
0.0568,-1.0461209494366246
0.057,-1.0865605288134188
0.0572,-1.110112345279182
0.0574,-1.1170908802586759
0.057600000000000005,-1.108059403448041
0.057800000000000004,-1.0838033723214902
0.058,-1.045301067942153
0.0582,-0.993692425250589
0.0584,-0.9302470086022498
0.058600000000000006,-0.8563320470226494
0.058800000000000005,-0.7733813805298978
0.059000000000000004,-0.6828660818254239
0.0592,-0.5862674102617309
0.0594,-0.4850526314216382
0.0596,-0.38065410048169457
0.059800000000000006,-0.2744518656571747
0.060000000000000005,-0.16775990443004524
0.060200000000000004,-0.061815964891779776
0.0604,0.042225147867466756
0.0606,0.1432951204397685
0.0608,0.2404128987753004
0.061000000000000006,0.3326831430808979
0.061200000000000004,0.4192929004216506
0.0614,0.49950706396204997
0.0616,0.5726632015469655
0.0618,0.6381663253702272
0.062,0.6954841396524932
0.062200000000000005,0.7441432462258081
0.062400000000000004,0.7837267111457069
0.0626,0.8138733020535673
0.06280000000000001,0.8342785996982616
0.063,0.8446980719514046
0.0632,0.8449520792749379
0.0634,0.8349326615375241
0.0636,0.8146118419388266
0.06380000000000001,0.7840510790384095
0.064,0.7434114066381101
0.06420000000000001,0.6929637272169565
0.0644,0.6330986708700765
0.0646,0.5643354006691752
0.0648,0.48732873868076865
0.065,0.4028740053470389
0.06520000000000001,0.3119090084837275
0.0654,0.21551268583030905
0.0656,0.11489999510064425
0.0658,0.011412755224171844
0.066,-0.09349373138821684
0.06620000000000001,-0.1982683071194782
0.0664,-0.30128572292197875
0.0666,-0.4008722727412778
0.0668,-0.4953348857331009
0.067,-0.5829931222766794
0.06720000000000001,-0.6622133904421821
0.0674,-0.731444586673621
0.06760000000000001,-0.7892542722181151
0.0678,-0.834364428906287
0.068,-0.8656857972026106
0.0682,-0.8823497881262274
0.0684,-0.8837369799337275
0.06860000000000001,-0.8695012606563288
0.0688,-0.839588758033322
0.069,-0.7942508074621666
0.0692,-0.7340503437534182
0.0694,-0.6598612603404801
0.06960000000000001,-0.5728604559909524
0.0698,-0.47451247919436335
0.07,-0.36654687894676663
0.0702,-0.2509285719529648
0.0704,-0.12982173446991777
0.07060000000000001,-0.005547916263431457
0.0708,0.11946075125136177
0.07100000000000001,0.24271222601573272
0.0712,0.3617079490579482
0.0714,0.47399770381271933
0.0716,0.57723461561717
0.0718,0.669228932635284
0.07200000000000001,0.7479992325870171
0.0722,0.8118197397244675
0.0724,0.8592625129255106
0.0726,0.8892333769300171
0.0728,0.9010006119746315
0.07300000000000001,0.8942155887902847
0.0732,0.8689247316657964
0.0734,0.8255724068772122
0.0736,0.7649945614835295
0.0738,0.688403172124563
0.07400000000000001,0.5973617986171126
0.0742,0.4937527663644397
0.07440000000000001,0.379736718538716
0.0746,0.25770547764543317
0.0748,0.13022933090399447
0.075,4.893635351496709e-16
0.0752,-0.130229330903997
0.07540000000000001,-0.2577054776454446
0.0756,-0.3797367185387184
0.0758,-0.4937527663644481
0.076,-0.5973617986171146
0.0762,-0.6884031721245685
0.07640000000000001,-0.7649945614835308
0.0766,-0.8255724068772187
0.07680000000000001,-0.8689247316657984
0.077,-0.8942155887902876
0.0772,-0.9010006119746324
0.07740000000000001,-0.8892333769300189
0.0776,-0.8592625129255099
0.07780000000000001,-0.8118197397244666
0.078,-0.7479992325870171
0.0782,-0.6692289326352834
0.0784,-0.5772346156171729
0.0786,-0.473997703812717
0.07880000000000001,-0.36170794905794
0.079,-0.2427122260157314
0.0792,-0.11946075125136024
0.0794,0.0055479162634343715
0.0796,0.12982173446992049
0.07980000000000001,0.25092857195296747
0.08,0.3665468789467709
0.08020000000000001,0.47451247919436734
0.0804,0.5728604559909547
0.0806,0.6598612603404823
0.08080000000000001,0.7340503437534281
0.081,0.7942508074621679
0.08120000000000001,0.8395887580333291
0.0814,0.8695012606563328
0.0816,0.8837369799337348
0.0818,0.8823497881262291
0.082,0.8656857972026124
0.08220000000000001,0.8343644289062881
0.0824,0.7892542722181157
0.0826,0.7314445866736207
0.0828,0.6622133904421805
0.083,0.5829931222766773
0.08320000000000001,0.4953348857330955
0.0834,0.4008722727412769
0.08360000000000001,0.30128572292197264
0.0838,0.19826830711947543
0.084,0.0934937313882081
0.08420000000000001,-0.011412755224174648
0.0844,-0.11489999510065393
0.08460000000000001,-0.2155126858303128
0.0848,-0.3119090084837389
0.085,-0.4028740053470433
0.0852,-0.48732873868076754
0.0854,-0.5643354006691776
0.08560000000000001,-0.6330986708700812
0.0858,-0.6929637272169599
0.08600000000000001,-0.743411406638113
0.0862,-0.7840510790384124
0.0864,-0.8146118419388292
0.08660000000000001,-0.8349326615375283
0.0868,-0.8449520792749396
0.08700000000000001,-0.844698071951409
0.0872,-0.834278599698261
0.0874,-0.813873302053568
0.0876,-0.7837267111457075
0.0878,-0.7441432462258046
0.08800000000000001,-0.6954841396524906
0.0882,-0.6381663253702252
0.0884,-0.5726632015469647
0.0886,-0.49950706396205136
0.0888,-0.41929290042164846
0.08900000000000001,-0.33268314308088887
0.0892,-0.24041289877529484
0.08940000000000001,-0.1432951204397576
0.0896,-0.04222514786746296
0.0898,0.06181596489178952
0.09000000000000001,0.16775990443005612
0.0902,0.274451865657186
0.09040000000000001,0.38065410048169857
0.0906,0.4850526314216419
0.0908,0.5862674102617338
0.091,0.6828660818254269
0.0912,0.7733813805298998
0.09140000000000001,0.8563320470226553
0.0916,0.9302470086022482
0.0918,0.993692425250591
0.092,1.045301067942151
0.0922,1.08380337232149
0.09240000000000001,1.108059403448041
0.0926,1.1170908802586732
0.09280000000000001,1.1101123452791812
0.093,1.0865605288134175
0.0932,1.0461209494366244
0.09340000000000001,0.9887508153188905
0.0936,0.9146973439730895
0.09380000000000001,0.8245107007673175
0.094,0.7190508673235863
0.0942,0.5994878871837885
0.0944,0.46729509445615813
0.0946,0.32423510739498573
0.09480000000000001,0.1723385582128962
0.095,0.013875727571288021
0.0952,-0.1486785485075967
0.0954,-0.31268613594498207
0.0956,-0.47539227465909584
0.09580000000000001,-0.6339767449675567
0.096,-0.7856084574953481
0.09620000000000001,-0.927502270593671
0.0964,-1.0569767435615247
0.0966,-1.1715114710351628
0.09680000000000001,-1.2688026162196422
0.097,-1.3468152696439768
0.09720000000000001,-1.4038313062491918
0.0974,-1.438491496225474
0.0976,-1.4498307424039851
0.0978,-1.4373054664653901
0.098,-1.4008123440914946
0.09820000000000001,-1.340697790947766
0.0984,-1.2577578218099592
0.09860000000000001,-1.153228138425194
0.0988,-1.0287645416006201
0.099,-0.8864140030781451
0.09920000000000001,-0.7285769664667581
0.0994,-0.5579616674849399
0.09960000000000001,-0.3775314659540726
0.0998,-0.19044635981472782
0.1,3.382501088193048e-15
0.10020000000000001,0.19044635981472957
0.1004,0.3775314659540839
0.10060000000000001,0.5579616674849442
0.1008,0.7285769664667662
0.101,0.8864140030781469
0.1012,1.0287645416006188
0.1014,1.153228138425194
0.10160000000000001,1.2577578218099652
0.1018,1.3406977909477675
0.10200000000000001,1.400812344091497
0.1022,1.4373054664653904
0.1024,1.4498307424039867
0.10260000000000001,1.4384914962254745
0.1028,1.4038313062491887
0.10300000000000001,1.346815269643975
0.1032,1.2688026162196395
0.1034,1.1715114710351593
0.10360000000000001,1.0569767435615154
0.1038,0.9275022705936624
0.10400000000000001,0.7856084574953329
0.1042,0.6339767449675492
0.1044,0.47539227465908107
0.1046,0.3126861359449833
0.1048,0.14867854850758058
0.10500000000000001,-0.013875727571291435
0.1052,-0.17233855821291313
0.10540000000000001,-0.32423510739498684
0.1056,-0.46729509445615997
0.1058,-0.5994878871837919
0.10600000000000001,-0.7190508673235882
0.1062,-0.8245107007673188
0.10640000000000001,-0.9146973439730931
0.1066,-0.9887508153188939
0.1068,-1.0461209494366255
0.10700000000000001,-1.0865605288134228
0.1072,-1.1101123452791812
0.10740000000000001,-1.117090880258676
0.1076,-1.108059403448043
0.1078,-1.08380337232149
0.108,-1.045301067942153
0.1082,-0.9936924252505858
0.10840000000000001,-0.9302470086022431
0.1086,-0.8563320470226501
0.10880000000000001,-0.7733813805298934
0.109,-0.6828660818254246
0.1092,-0.586267410261726
0.10940000000000001,-0.4850526314216272
0.1096,-0.3806541004816889
0.10980000000000001,-0.2744518656571685
0.11,-0.16775990443004546
0.1102,-0.06181596489177249
0.11040000000000001,0.04222514786746412
0.1106,0.14329512043977477
0.11080000000000001,0.2404128987752988
0.111,0.3326831430809042
0.11120000000000001,0.419292900421652
0.1114,0.4995070639620529
0.1116,0.5726632015469639
0.11180000000000001,0.6381663253702309
0.112,0.6954841396524928
0.11220000000000001,0.7441432462258076
0.1124,0.7837267111457062
0.1126,0.8138733020535683
0.11280000000000001,0.8342785996982605
0.113,0.8446980719514043
0.11320000000000001,0.844952079274936
0.1134,0.8349326615375231
0.1136,0.8146118419388235
0.11380000000000001,0.7840510790384078
0.114,0.7434114066381048
0.11420000000000001,0.6929637272169509
0.1144,0.6330986708700705
0.11460000000000001,0.5643354006691678
0.1148,0.4873287386807636
0.115,0.4028740053470326
0.11520000000000001,0.31190900848372183
0.1154,0.21551268583030317
0.11560000000000001,0.11489999510065133
0.1158,0.011412755224166765
0.116,-0.09349373138820999
0.11620000000000001,-0.19826830711947718
0.1164,-0.3012857229219732
0.11660000000000001,-0.4008722727412779
0.1168,-0.4953348857330978
0.117,-0.5829931222766798
0.11720000000000001,-0.6622133904421842
0.1174,-0.7314445866736204
0.11760000000000001,-0.7892542722181146
0.1178,-0.8343644289062853
0.11800000000000001,-0.865685797202612
0.1182,-0.8823497881262287
0.1184,-0.8837369799337275
0.11860000000000001,-0.8695012606563266
0.1188,-0.8395887580333223
0.11900000000000001,-0.7942508074621607
0.1192,-0.7340503437534215
0.1194,-0.6598612603404743
0.11960000000000001,-0.5728604559909464
0.1198,-0.47451247919435724
0.12000000000000001,-0.36654687894676286
0.1202,-0.25092857195295826
0.12040000000000001,-0.12982173446991122
0.1206,-0.0055479162634347046
0.1208,0.1194607512513668
0.12100000000000001,0.2427122260157315
0.1212,0.36170794905795367
0.12140000000000001,0.47399770381271966
0.1216,0.5772346156171729
0.1218,0.6692289326352832
0.12200000000000001,0.7479992325870165
0.1222,0.811819739724466
0.12240000000000001,0.8592625129255114
0.1226,0.8892333769300177
0.1228,0.9010006119746321
0.12300000000000001,0.8942155887902851
0.1232,0.8689247316657965
0.12340000000000001,0.8255724068772146
0.1236,0.7649945614835297
0.12380000000000001,0.6884031721245631
0.124,0.5973617986171202
0.1242,0.4937527663644419
0.12440000000000001,0.3797367185387118
0.1246,0.25770547764543306
0.12480000000000001,0.13022933090398725
